Displacement,Velocity,Acceleration,Time
0.0012556800000000001,0.15696000000000002,9.81,0.016
0.01130106154783974,0.4708763467399837,9.80988583562449,0.032
0.045203851642338276,0.9417399071974553,9.809657509530657,0.048
0.12556468288105951,1.5695360690125835,9.809315028361379,0.064
0.2825159152908499,2.354244741232176,9.808858402744907,0.08
0.5537199999278711,3.2958403553724325,9.808287647294337,0.096
0.9843674043695496,4.394291866800398,9.807602780606828,0.112
1.6271741002565516,5.64956275643401,9.806803825262598,0.128
2.542378613078565,7.061611032760622,9.805890807823689,0.14400000000000002
3.797738634433321,8.630389234173823,9.8048637588325,0.16000000000000003
5.468527197023917,10.355844431628398,9.803722712810083,0.17600000000000005
7.6375284126951115,12.23791823161321,9.802467708254222,0.19200000000000006
10.395032773844829,14.276546779441759,9.801098787637251,0.20800000000000007
13.838832018582648,16.471660762860186,9.799615997403688,0.2240000000000001
18.074213560042562,18.823185415972407,9.798019387967585,0.2400000000000001
23.21395448029274,21.331040523482088,9.79630901370969,0.2560000000000001
29.378315089320456,23.995140425251112,9.794484932974349,0.27200000000000013
36.6950320496057,26.81539402117418,9.792547208066205,0.28800000000000014
45.29931106683229,29.79170477636916,9.79049590524664,0.30400000000000016
55.3338191473206,32.92397072668276,9.788331094730005,0.3200000000000002
66.94867642280117,36.21208448451111,9.786052850679614,0.3360000000000002
80.30144754318366,39.65593324493475,9.783661251203512,0.3520000000000002
95.55713263801049,43.255398792167554,9.781156378350012,0.3680000000000002
112.88815784731993,47.01035750631911,9.778538318103003,0.38400000000000023
132.47436542267775,50.920680370469924,9.775807160377036,0.40000000000000024
154.50300339917177,54.98623297805899,9.772962999012172,0.41600000000000026
179.16871483919846,59.206875540583034,9.770005931768614,0.4320000000000003
206.673526648905,63.58246289560689,9.766936060321095,0.4480000000000003
237.2268379681854,68.11284451508432,9.763753490253073,0.4640000000000003
271.0454081351629,72.79786451398864,9.760458331050662,0.4800000000000003
308.35334422612675,77.63736165925243,9.757050696096357,0.49600000000000033
349.38208817192344,82.63116937901566,9.753530702662536,0.5120000000000003
394.3704034518395,87.77911577218136,9.749898471904732,0.5280000000000004
443.5643613660445,93.08102361827831,9.746154128854684,0.5440000000000004
497.2173268876988,98.53671038762968,9.742297802413155,0.5600000000000004
555.5899440958624,104.14598825182699,9.73832962534255,0.5760000000000004
618.9501211903778,109.9086640945085,9.734249734259285,0.5920000000000004
687.5730150899305,115.82453952244109,9.730058269625953,0.6080000000000004
761.7410156145265,121.8934108769049,9.725755375743269,0.6240000000000004
841.7437292536576,128.11506924537963,9.721341200741778,0.6400000000000005
927.8779625214606,134.48930047353176,9.716815896573362,0.6560000000000005
1020.4477049002079,141.01588517750145,9.712179619002518,0.6720000000000005
1119.7641113735006,147.6945987564885,9.707432527597426,0.6880000000000005
1226.1454845505684,154.52521140563593,9.702574785720792,0.7040000000000005
1339.9172563831132,161.50748812921069,9.697606560520473,0.7200000000000005
1461.4119694761641,168.64118875407974,9.692528022919896,0.7360000000000005
1590.9692579944472,175.92606794348114,9.687339347608258,0.7520000000000006
1728.935828165802,183.36187521108857,9.682040713030498,0.7680000000000006
1875.665438383213,190.9483549353682,9.67663230137708,0.7840000000000006
2031.5188789070512,198.68524637422703,9.67111429857354,0.8000000000000006
2196.8639511691563,206.57228367995123,9.665486894269849,0.8160000000000006
2372.0754466804206,214.6091959144334,9.659750281829522,0.8320000000000006
2557.535125543568,222.79570706468755,9.653904658318563,0.8480000000000006
2753.6316945728504,231.1315360586505,9.647950224494176,0.8640000000000007
2960.760785022415,239.61639678126858,9.64188718479326,0.8800000000000007
3179.3249299251324,248.24999809086796,9.635715747320727,0.8960000000000007
3409.7335410436967,257.0320438358078,9.629436123837582,0.9120000000000007
3652.402885435848,265.96223287141476,9.623048529748813,0.9280000000000007
3907.7560616355927,275.04025907719677,9.616553184091078,0.9440000000000007
4176.222975452329,284.2658113743361,9.609950309520178,0.9600000000000007
4458.240315389813,293.6385737434593,9.60324013229834,0.9760000000000008
4754.25152768694,303.1582252426823,9.596422882281288,0.9920000000000008
5064.706790982321,312.8244400259307,9.589498792905118,1.0080000000000007
5390.062990604702,322.6368873615318,9.582468101172976,1.0240000000000007
5730.783692491259,332.595231651079,9.575331047641532,1.0400000000000007
6087.339116735871,342.6991324485651,9.568087876407256,1.0560000000000007
6460.206110769467,352.94824447978425,9.560738835092513,1.0720000000000007
6849.868122174598,363.34221766200085,9.55328417483144,1.0880000000000007
7256.815171136406,373.88069712388307,9.545724150255639,1.1040000000000008
7681.543822532173,384.56332322570034,9.538059019479691,1.1200000000000008
8124.557157661688,395.38973157978256,9.530289044086452,1.1360000000000008
8586.364745620676,406.3595530712398,9.522414489112176,1.1520000000000008
9067.482614319582,417.4724138789406,9.514435623031451,1.1680000000000008
9568.565070505636,428.9506540029071,9.694459564160887,1.1840000000000008
10090.281228804175,440.57627649465667,9.68801874312467,1.2000000000000008
10633.17964987175,452.3487581559598,9.681317155676922,1.2160000000000009
11197.815298937105,464.2675552618223,9.674348300213046,1.2320000000000009
11784.749485750888,476.3321030936002,9.667105634437432,1.2480000000000009
12394.549802284722,488.541815472593,9.659582578317057,1.264000000000001
13027.790058135679,500.89608429452676,9.651772517135756,1.280000000000001
13685.050213592882,513.3942790653534,9.643668804650241,1.296000000000001
14366.91631032361,526.0357464388029,9.635264766348708,1.312000000000001
15073.980399637052,538.8198097561384,9.62655370281287,1.328000000000001
15806.840468284701,551.7457685885778,9.617528893184073,1.344000000000001
16566.100361757275,564.812898282856,9.608183598734032,1.360000000000001
17352.369705039047,578.0204495104159,9.598511066540617,1.376000000000001
18166.26382078152,591.3676478207263,9.588504533268951,1.392000000000001
19008.40364485958,604.85369319924,9.57815722905795,1.408000000000001
19879.415639274364,618.4777596305134,9.567462381512282,1.424000000000001
20779.931702368594,632.2389946670248,9.556413219799552,1.440000000000001
21710.58907632127,646.1365190042338,9.54500297885237,1.456000000000001
22672.030251890345,660.1694260624431,9.533224903674778,1.472000000000001
23664.902870373367,674.3367815760266,9.521072253752319,1.488000000000001
24689.859622757875,688.6376231906042,9.508538307564876,1.5040000000000011
25747.558146034986,703.0709600687501,9.495616367201205,1.5200000000000011
26838.660916651497,717.6357725048315,9.482299763073835,1.5360000000000011
27963.835141077725,732.331011549585,9.468581858732934,1.5520000000000012
29123.752643470314,747.1555986450439,9.454456055777367,1.5680000000000012
30319.08975041138,762.10842527044,9.439915798861094,1.5840000000000012
31550.527172707498,777.1883525997083,9.424954580792742,1.6000000000000012
32818.74988423442,792.3942111712336,9.409565947726017,1.6160000000000012
34124.446997815656,807.724800570477,9.393743504438369,1.6320000000000012
35468.31163812566,823.1788891261344,9.377480919695056,1.6480000000000012
36851.040811610845,838.755213620476,9.360771931695599,1.6640000000000013
38273.33527342424,854.4524790145227,9.343610353599258,1.6800000000000013
39735.89939137259,870.2693581887205,9.325990079126035,1.6960000000000013
41239.44100687714,886.2044916997692,9.30790508822934,1.7120000000000013
42784.67129295263,902.2564875542704,9.289349452836323,1.7280000000000013
44372.30460921183,918.4239209998547,9.270317342651497,1.7440000000000013
46003.05835390602,934.7053343344484,9.250803031019132,1.7600000000000013
47677.652813015105,951.0992367343395,9.230800900839549,1.7760000000000014
49396.8110064042,967.6041041016969,9.21030545053428,1.7920000000000014
51161.25853106684,984.2183789321957,9.189311300054664,1.8080000000000014
52971.72340147849,1000.940470203393,9.167813196928366,1.8240000000000014
54828.93588708735,1017.7687532844948,9.145806022337894,1.8400000000000014
56733.628346973,1034.7015698681444,9.12328479722501,1.8560000000000014
58686.53506170725,1051.7372279248566,9.100244688414694,1.8720000000000014
60688.3920624549,1068.8740016807083,9.076681014751989,1.8880000000000015
62739.93695735611,1086.1101316188867,9.052589253244928,1.9040000000000015
64841.9087552357,1103.443824505683,9.027965045206379,1.9200000000000015
66995.04768668859,1120.8732534415053,9.002804202387502,1.9360000000000015
69200.09502259447,1138.3965579374674,8.977102713095265,1.9520000000000015
71457.79289011874,1156.0118440180945,8.950856748286181,1.9680000000000015
73768.88408626056,1173.7171843506692,8.92406266762834,1.9840000000000015
76134.11188901294,1191.510618401716,8.896717025523442,2.0000000000000013
78554.21986620396,1209.3901526211105,8.868816577080537,2.0160000000000013
81029.95168209175,1227.3537606542652,8.840358284032806,2.0320000000000014
83562.05090179054,1245.3993835828308,8.811339320588674,2.0480000000000014
86151.26079360856,1263.5249301943168,8.781757079208342,2.0640000000000014
88798.3241293829,1281.7282772810138,8.751609176296656,2.0800000000000014
91503.98298290047,1300.0072699685693,8.720893457803168,2.0960000000000014
94268.978526498,1318.359722074538,8.689608004720032,2.1120000000000014
97094.05082593834,1336.7834164971987,8.65775113846837,2.1280000000000014
99979.93863366394,1355.2761056348934,8.625321426163593,2.1440000000000015
102927.37918053263,1373.8355118361137,8.592317685750112,2.1600000000000015
105937.10796614434,1392.4593278805207,8.558738990995865,2.1760000000000015
109009.85854787158,1411.1452174910514,8.524584676336971,2.1920000000000015
112146.36232871017,1429.8908158772224,8.48985434156291,2.2080000000000015
115347.34834407004,1448.693730309706,8.454547856332548,2.2240000000000015
118613.54304763027,1467.5515407262117,8.41866536451143,2.2400000000000015
121945.67009638529,1486.4618003686633,8.38220728832076,2.2560000000000016
125344.45013501315,1505.422036451623,8.345174332288597,2.2720000000000016
128810.60057969978,1524.429750861865,8.307567486993879,2.2880000000000016
132344.83540155675,1543.4824208889615,8.26938803259399,2.3040000000000016
135947.8649097725,1562.5774999866958,8.230637542126797,2.3200000000000016
139620.39553464096,1581.7124185650703,8.191317884578108,2.3360000000000016
143363.12961061313,1600.8845848126346,8.151431227705894,2.3520000000000016
147176.76515952108,1620.0913855488052,8.110980040612626,2.3680000000000017
151061.99567412538,1639.3301871058063,8.069967096057487,2.3840000000000017
155019.50990214013,1658.5983362398072,8.028395472500362,2.4000000000000017
159049.99163089134,1677.8931610707887,7.986268555869857,2.4160000000000017
163154.11947276696,1697.2119720506173,7.943590041047918,2.4320000000000017
167332.56665161846,1716.5520629587577,7.900363933063912,2.4480000000000017
171586.00079027525,1735.9107119250086,7.856594547991415,2.4640000000000017
175915.08369933572,1755.2851824785912,7.8122865135413635,2.4800000000000018
180320.47116739835,1774.6727246228777,7.767444769345573,2.4960000000000018
184802.81275289904,1794.0705759349935,7.7220745669251,2.512000000000002
189362.7515777204,1813.4759626894809,7.676181469338374,2.528000000000002
194000.92412274,1832.8861010051642,7.629771350504455,2.544000000000002
198717.9600254849,1852.2981980143093,7.582850394197322,2.560000000000002
203514.48188005976,1871.709453053124,7.535425092707554,2.576000000000002
208391.1050395155,1891.1170588726004,7.487502245168344,2.592000000000002
213348.4374208261,1910.5182028686572,7.4390889555432835,2.608000000000002
218387.0793126394,1929.9100683304962,7.390192630273957,2.624000000000002
223507.62318596762,1949.289835706043,7.340820975585948,2.640000000000002
228710.6535079823,1968.6546838833087,7.29098199445244,2.656000000000002
233996.7465590763,1988.0017914864598,7.240683983215224,2.672000000000002
239366.47025335522,2007.3283381853569,7.1899355278635015,2.688000000000002
244820.3839627172,2026.63150601728,7.138745499971542,2.704000000000002
250359.03834467925,2045.9084807195272,7.0871230522968425,2.720000000000002
255982.97517410544,2065.1564530715436,7.035077614041105,2.736000000000002
261692.72717898927,2084.3726202452017,6.982618885776958,2.752000000000002
267488.8178804406,2103.5541871618357,6.9297568340440385,2.768000000000002
273371.7614370235,2122.698367854598,6.87650168561864,2.784000000000002
279342.06249358854,2141.8023868346913,6.822863921461842,2.800000000000002
285400.21603473945,2160.8634804600015,6.7688542703516035,2.816000000000002
291546.7072430702,2179.878898304646,6.714483702205009,2.832000000000002
297782.01136230375,2198.8459045279315,6.659763421097453,2.848000000000002
304106.59356546117,2217.761779241204,6.604704857986163,2.864000000000002
310520.90882818284,2236.623819871065,6.5493196631461075,2.880000000000002
317025.40180732135,2255.4293425174196,6.493619698326907,2.896000000000002
323620.50672491855,2274.1756833048194,6.43761702863995,2.912000000000002
330306.647257675,2292.8601997255546,6.381323914185542,2.928000000000002
337084.23643201526,2311.4802719729655,6.324752801430365,2.944000000000002
343953.6765248451,2330.03330426343,6.267916314346198,2.960000000000002
350915.35897009366,2348.5167261455063,6.2108272453212106,2.976000000000002
357969.66427112423,2366.9279937947067,6.15349854585579,2.992000000000002
365116.96191909525,2385.2645912924086,6.095943317055172,3.0080000000000022
372357.61031734315,2403.524031887402,6.038174799931737,3.0240000000000022
379691.95671185467,2421.703859238614,5.980206365530131,3.0400000000000023
387120.33712788945,2439.801648637554,5.922051504888828,3.0560000000000023
394643.0763128059,2457.815008209068,5.863723818852067,3.0720000000000023
402260.48768513807,2475.741580088989,5.805237007746454,3.0880000000000023
409972.8732899642,2493.5790415773367,5.746604860936803,3.1040000000000023
417780.5237605994,2511.3251062657177,5.687841246276019,3.1200000000000023
425683.71828663984,2528.9775251376373,5.628960099464121,3.1360000000000023
433682.7245883781,2546.5340876404584,5.5699754133316235,3.1520000000000024
441777.79889760143,2563.9926227277933,5.5109012270627185,3.1680000000000024
449969.18594477896,2581.3509998711434,5.451751615373758,3.1840000000000024
458257.11895263626,2598.607130039664,5.392540677662683,3.2000000000000024
466641.81963610835,2615.7589666469626,5.333282527145058,3.2160000000000024
475123.4982086555,2632.804506463898,5.273991279992381,3.2320000000000024
483702.353394919,2649.7417904963963,5.214681044488364,3.2480000000000024
492378.5724496874,2666.5689048273503,5.155365910218738,3.2640000000000025
501152.3311831359,2683.2839814217273,5.096059937310126,3.2800000000000025
510023.7939922963,2699.885198894064,5.036777145733331,3.2960000000000025
518993.11389870633,2716.3707832375853,4.977531504686272,3.3120000000000025
528060.4325921814,2732.7390085142392,4.918336922071537,3.3280000000000025
537225.8804806456,2748.988197505014,4.859207234083371,3.3440000000000025
546489.5767459515,2765.11672231994,4.800156194918541,3.3600000000000025
555851.6294056124,2781.123004967267,4.7411974666253345,3.3760000000000026
565312.1353803637,2797.0055178813495,4.682344609104522,3.3920000000000026
574871.1805674662,2812.7627844088497,4.623611070275807,3.4080000000000026
584528.8399196551,2828.3933792529215,4.565010176422855,3.4240000000000026
594285.1775296354,2843.8959288751116,4.506555122729637,3.4400000000000026
604140.2467200166,2859.269111854766,4.448258964020284,3.4560000000000026
614094.0901385777,2874.5116592058057,4.390134605714281,3.4720000000000026
624146.7398587436,2889.6223546507945,4.33219479500825,3.4880000000000027
634298.217485153,2904.6000348522766,4.274452112295117,3.5040000000000027
644548.5342641915,2919.4435896014415,4.216918962830888,3.5200000000000027
654897.6911993596,2934.151961964219,4.1596075686587275,3.5360000000000027
665345.6791713398,2948.724148384979,4.102529960799448,3.5520000000000027
675892.4790626252,2963.159198748065,4.045697971716944,3.5680000000000027
686538.061886566,2977.4562163974556,3.9891232280665037,3.5840000000000027
697282.3889206882,2991.614358114896,3.9328171437333395,3.6000000000000028
708125.4118441348,3005.6328340569116,3.87679091316803,3.6160000000000028
719067.0728790767,3019.510907651162,3.821055505024974,3.632000000000003
730107.3049359381,3033.247895452649,3.7656216561093077,3.648000000000003
741246.0317622788,3046.8431669603433,3.7104998656371126,3.664000000000003
752483.1680951724,3060.2961443948557,3.6557003898131213,3.680000000000003
763818.6198169192,3073.6063024378077,3.601233236729438,3.696000000000003
775252.2841139286,3086.7731679336234,3.5471081615882425,3.712000000000003
786784.0496386064,3099.7963195544944,3.4933346622507413,3.728000000000003
798413.7966740801,3112.6753874293213,3.4399219751140504,3.744000000000003
810141.3973015937,3125.4100527374735,3.38687907131706,3.760000000000003
821966.7155704044,3138.0000472682427,3.334214653275714,3.776000000000003
833889.6076700124,3150.445152946911,3.2819371515475866,3.792000000000003
845909.9221045526,3162.745201328382,3.230054722024943,3.808000000000003
858027.499869182,3174.900073059354,3.1785752434550565,3.824000000000003
870242.1746282913,3186.9096973100513,3.1275063152858253,3.840000000000003
882553.7728953734,3198.7740511765483,3.0768552558343165,3.856000000000003
894962.1142143812,3210.49315905475,3.026629100775253,3.872000000000003
907467.0113424066,3222.067091987116,2.976834601945999,3.888000000000003
920068.2704335167,3233.4959669832315,2.927478226464077,3.904000000000003
932765.6912235819,3244.7799463153506,2.8785661561527762,3.920000000000003
945559.0672159333,3255.9192367900455,2.8301042872699913,3.936000000000003
958448.1858676889,3266.9140889971195,2.782098230534949,3.952000000000003
971432.8287765884,3277.7647965369415,2.7345533114470983,3.968000000000003
984512.7718681829,3288.4716952273716,2.687474570891057,3.984000000000003
997687.7855832205,3299.035162291456,2.6408667660211167,4.000000000000003
1010957.6350650801,3309.4556155270725,2.594734371418488,4.016000000000003
1024322.0803471014,3319.7335124597053,2.5490815805141267,4.032000000000003
1037780.8765396664,3329.869349479533,2.5039123072697076,4.048000000000003
1051333.7740168876,3339.863660964008,2.459230188109007,4.064000000000003
1064980.518602764,3349.7170183871026,2.415038584091767,4.080000000000003
1078720.8517566656,3359.4300294163886,2.371340583321791,4.096000000000003
1092554.5107580158,3369.0033369991133,2.3281390035809255,4.112000000000003
1106481.2288900388,3378.4376184384178,2.2854363951803247,4.128000000000003
1120500.735622446,3387.733584460838,2.2432350440202797,4.144000000000003
1134612.756792939,3396.8919782762127,2.2015369748497515,4.160000000000003
1148817.0147874095,3405.9135746311094,2.1603439547166237,4.176000000000003
1163113.2287187201,3414.799178856855,2.1196574965996233,4.192000000000003
1177501.1146039565,3423.5496259132547,2.079478863212787,4.208000000000003
1191980.3855400395,3432.165779429046,2.0398090709732966,4.224000000000003
1206550.7518775982,3440.6485307401294,2.0006488941234704,4.240000000000003
1221211.921393001,3448.998797926584,1.9619988689977446,4.256000000000003
1235963.5994584507,3457.2175248494573,1.9238592984254261,4.272000000000003
1250805.4892100517,3465.3056801883004,1.8862302562600808,4.288000000000003
